osu file format v14

[General]
AudioFilename: Saramandora no Odoriko_0.mp3
AudioLeadIn: 0
PreviewTime: 45890
Countdown: 0
SampleSet: None
StackLeniency: 0.7
Mode: 3
LetterboxInBreaks: 0
SpecialStyle: 0
WidescreenStoryboard: 1

[Editor]
DistanceSpacing: 1.5
BeatDivisor: 2
GridSize: 8
TimelineZoom: 2.5

[Metadata]
Title:[Crz]sunnyxxy 6K Alpha Pack 1
TitleUnicode:[Crz]sunnyxxy 6K Alpha Pack 1
Artist:Various Artists
ArtistUnicode:Various Artists
Creator:[Crz]sunnyxxy
Version:Hatsuki Yura - Saramandora no Odoriko [7]
Source:
Tags:
BeatmapID:2663082
BeatmapSetID:1282142

[Difficulty]
HPDrainRate:8
CircleSize:6
OverallDifficulty:8
ApproachRate:5
SliderMultiplier:1.4
SliderTickRate:1

[Events]
//Background and Video events
0,0,"[Crz]sunnyxxy 6K Alpha Pack 1_0.jpg",0,0
//Break Periods
//Storyboard Layer 0 (Background)
//Storyboard Layer 1 (Fail)
//Storyboard Layer 2 (Pass)
//Storyboard Layer 3 (Foreground)
//Storyboard Layer 4 (Overlay)
//Storyboard Sound Samples

[TimingPoints]
294,472.44094488189,4,2,0,20,1,0


[HitObjects]
384,192,294,5,0,0:0:0:0:
128,192,648,1,0,0:0:0:0:
384,192,1002,1,0,0:0:0:0:
213,192,1238,1,0,0:0:0:0:
469,192,1593,1,0,0:0:0:0:
384,192,1947,1,0,0:0:0:0:
298,192,2183,1,0,0:0:0:0:
128,192,2538,1,0,0:0:0:0:
298,192,2892,1,0,0:0:0:0:
213,192,3128,1,0,0:0:0:0:
128,192,3482,1,0,0:0:0:0:
42,192,3837,1,0,0:0:0:0:
128,192,4073,1,0,0:0:0:0:
469,192,4545,1,0,0:0:0:0:
384,192,5018,1,0,0:0:0:0:
298,192,5372,1,0,0:0:0:0:
128,192,5727,1,0,0:0:0:0:
213,192,5963,1,0,0:0:0:0:
298,192,6081,1,0,0:0:0:0:
213,192,6199,1,0,0:0:0:0:
128,192,7144,1,0,0:0:0:0:
213,192,7380,1,0,0:0:0:0:
298,192,7616,1,0,0:0:0:0:
384,192,7853,1,0,0:0:0:0:
42,192,7853,1,0,0:0:0:0:
128,192,8207,1,0,0:0:0:0:
42,192,8325,1,0,0:0:0:0:
384,192,8561,1,0,0:0:0:0:
213,192,8797,1,0,0:0:0:0:
42,192,8797,1,0,0:0:0:0:
469,192,9152,1,0,0:0:0:0:
42,192,9270,1,0,0:0:0:0:
384,192,9506,1,0,0:0:0:0:
298,192,9742,1,0,0:0:0:0:
42,192,9742,1,0,0:0:0:0:
213,192,10097,1,0,0:0:0:0:
42,192,10215,1,0,0:0:0:0:
384,192,10451,1,0,0:0:0:0:
42,192,10687,1,0,0:0:0:0:
298,192,10687,1,0,0:0:0:0:
213,192,11042,1,0,0:0:0:0:
42,192,11160,1,0,0:0:0:0:
128,192,11396,1,0,0:0:0:0:
213,192,11632,1,0,0:0:0:0:
42,192,11632,1,0,0:0:0:0:
469,192,12105,1,0,0:0:0:0:
42,192,12105,1,0,0:0:0:0:
384,192,12577,1,0,0:0:0:0:
42,192,12577,1,0,0:0:0:0:
298,192,12931,1,0,0:0:0:0:
42,192,13049,1,0,0:0:0:0:
128,192,13286,1,0,0:0:0:0:
213,192,13522,1,0,0:0:0:0:
298,192,13522,1,0,0:0:0:0:
213,192,13876,1,0,0:0:0:0:
298,192,13876,1,0,0:0:0:0:
213,192,14231,1,0,0:0:0:0:
298,192,14231,1,0,0:0:0:0:
469,192,14467,1,0,0:0:0:0:
213,192,14467,1,0,0:0:0:0:
469,192,14624,1,0,0:0:0:0:
213,192,14624,1,0,0:0:0:0:
213,192,14782,1,0,0:0:0:0:
469,192,14782,1,0,0:0:0:0:
128,192,14939,1,0,0:0:0:0:
384,192,14939,1,0,0:0:0:0:
42,192,15412,1,0,0:0:0:0:
469,192,15412,1,0,0:0:0:0:
128,192,15648,1,0,0:0:0:0:
213,192,15884,1,0,0:0:0:0:
384,192,16120,1,0,0:0:0:0:
298,192,16356,1,0,0:0:0:0:
469,192,16711,1,0,0:0:0:0:
384,192,17065,1,0,0:0:0:0:
298,192,17301,1,0,0:0:0:0:
128,192,17656,1,0,0:0:0:0:
298,192,18010,1,0,0:0:0:0:
213,192,18246,1,0,0:0:0:0:
298,192,18955,1,0,0:0:0:0:
213,192,19073,1,0,0:0:0:0:
128,192,19191,1,0,0:0:0:0:
213,192,19545,1,0,0:0:0:0:
298,192,19900,1,0,0:0:0:0:
42,192,20136,1,0,0:0:0:0:
298,192,20608,1,0,0:0:0:0:
384,192,21081,1,0,0:0:0:0:
128,192,21435,1,0,0:0:0:0:
469,192,21790,1,0,0:0:0:0:
298,192,22026,1,0,0:0:0:0:
42,192,22144,1,0,0:0:0:0:
128,192,22262,1,0,0:0:0:0:
213,192,22380,1,0,0:0:0:0:
298,192,22498,1,0,0:0:0:0:
213,192,22616,1,0,0:0:0:0:
298,192,22734,1,0,0:0:0:0:
384,192,22853,1,0,0:0:0:0:
469,192,22971,1,0,0:0:0:0:
42,192,22971,1,0,0:0:0:0:
128,192,23207,1,0,0:0:0:0:
213,192,23443,1,0,0:0:0:0:
384,192,23679,1,0,0:0:0:0:
298,192,23916,1,0,0:0:0:0:
469,192,24270,1,0,0:0:0:0:
384,192,24624,1,0,0:0:0:0:
298,192,24860,1,0,0:0:0:0:
128,192,25215,1,0,0:0:0:0:
298,192,25569,1,0,0:0:0:0:
213,192,25805,1,0,0:0:0:0:
298,192,26514,1,0,0:0:0:0:
213,192,26632,1,0,0:0:0:0:
128,192,26750,1,0,0:0:0:0:
213,192,27105,1,0,0:0:0:0:
298,192,27459,1,0,0:0:0:0:
384,192,27695,1,0,0:0:0:0:
298,192,28049,1,0,0:0:0:0:
128,192,28404,1,0,0:0:0:0:
469,192,28640,1,0,0:0:0:0:
213,192,28640,1,0,0:0:0:0:
384,192,29112,1,0,0:0:0:0:
128,192,29112,1,0,0:0:0:0:
298,192,29467,1,0,0:0:0:0:
42,192,29467,1,0,0:0:0:0:
128,192,29703,1,0,0:0:0:0:
298,192,29821,1,0,0:0:0:0:
469,192,29939,1,0,0:0:0:0:
298,192,30175,1,0,0:0:0:0:
469,192,30530,1,0,0:0:0:0:
42,192,30530,1,0,0:0:0:0:
128,192,30766,1,0,0:0:0:0:
42,192,31002,1,0,0:0:0:0:
469,192,31002,1,0,0:0:0:0:
298,192,31238,1,0,0:0:0:0:
42,192,31475,1,0,0:0:0:0:
384,192,31475,1,0,0:0:0:0:
42,192,31947,1,0,0:0:0:0:
298,192,31947,1,0,0:0:0:0:
384,192,32183,1,0,0:0:0:0:
42,192,32419,1,0,0:0:0:0:
469,192,32419,1,0,0:0:0:0:
213,192,32656,1,0,0:0:0:0:
42,192,32892,1,0,0:0:0:0:
469,192,32892,1,0,0:0:0:0:
298,192,33128,1,0,0:0:0:0:
42,192,33364,1,0,0:0:0:0:
384,192,33364,1,0,0:0:0:0:
298,192,33601,1,0,0:0:0:0:
42,192,33837,1,0,0:0:0:0:
213,192,33837,1,0,0:0:0:0:
42,192,34309,1,0,0:0:0:0:
128,192,34309,1,0,0:0:0:0:
42,192,34782,1,0,0:0:0:0:
384,192,34782,1,0,0:0:0:0:
42,192,35254,1,0,0:0:0:0:
469,192,35254,1,0,0:0:0:0:
384,192,35490,1,0,0:0:0:0:
42,192,35727,1,0,0:0:0:0:
298,192,35727,1,0,0:0:0:0:
213,192,35963,1,0,0:0:0:0:
42,192,36199,1,0,0:0:0:0:
384,192,36199,1,0,0:0:0:0:
42,192,36671,1,0,0:0:0:0:
469,192,36908,1,0,0:0:0:0:
384,192,37026,1,0,0:0:0:0:
42,192,37144,1,0,0:0:0:0:
298,192,37144,1,0,0:0:0:0:
384,192,37380,1,0,0:0:0:0:
213,192,37498,1,0,0:0:0:0:
42,192,37616,1,0,0:0:0:0:
384,192,37616,1,0,0:0:0:0:
213,192,37734,1,0,0:0:0:0:
384,192,37853,1,0,0:0:0:0:
213,192,37971,1,0,0:0:0:0:
42,192,38089,1,0,0:0:0:0:
469,192,38089,1,0,0:0:0:0:
128,192,38325,1,0,0:0:0:0:
42,192,38561,1,0,0:0:0:0:
469,192,38561,1,0,0:0:0:0:
298,192,38797,1,0,0:0:0:0:
42,192,39034,1,0,0:0:0:0:
384,192,39034,1,0,0:0:0:0:
42,192,39506,1,0,0:0:0:0:
213,192,39506,1,0,0:0:0:0:
298,192,39742,1,0,0:0:0:0:
42,192,39979,1,0,0:0:0:0:
384,192,39979,1,0,0:0:0:0:
128,192,40215,1,0,0:0:0:0:
42,192,40451,1,0,0:0:0:0:
469,192,40451,1,0,0:0:0:0:
213,192,40687,1,0,0:0:0:0:
42,192,40923,1,0,0:0:0:0:
298,192,40923,1,0,0:0:0:0:
42,192,41396,1,0,0:0:0:0:
298,192,41632,1,0,0:0:0:0:
298,192,41750,1,0,0:0:0:0:
469,192,41868,1,0,0:0:0:0:
42,192,41868,1,0,0:0:0:0:
128,192,41868,1,0,0:0:0:0:
213,192,42341,1,0,0:0:0:0:
42,192,42341,1,0,0:0:0:0:
298,192,42813,1,0,0:0:0:0:
42,192,42813,1,0,0:0:0:0:
128,192,42813,1,0,0:0:0:0:
469,192,43168,1,0,0:0:0:0:
42,192,43286,1,0,0:0:0:0:
384,192,43522,1,0,0:0:0:0:
42,192,43758,1,0,0:0:0:0:
384,192,43758,128,0,44467:0:0:0:0:
42,192,44231,1,0,0:0:0:0:
298,192,44467,1,0,0:0:0:0:
213,192,44585,1,0,0:0:0:0:
298,192,44703,1,0,0:0:0:0:
469,192,44821,1,0,0:0:0:0:
213,192,44939,1,0,0:0:0:0:
384,192,45057,1,0,0:0:0:0:
42,192,45175,1,0,0:0:0:0:
469,192,45294,1,0,0:0:0:0:
128,192,45412,1,0,0:0:0:0:
298,192,45530,1,0,0:0:0:0:
469,192,45648,1,0,0:0:0:0:
42,192,45648,1,0,0:0:0:0:
384,192,45766,1,0,0:0:0:0:
469,192,45884,1,0,0:0:0:0:
42,192,46120,1,0,0:0:0:0:
213,192,46120,1,0,0:0:0:0:
469,192,46356,1,0,0:0:0:0:
384,192,46593,1,0,0:0:0:0:
42,192,46593,1,0,0:0:0:0:
298,192,46829,1,0,0:0:0:0:
42,192,47065,1,0,0:0:0:0:
213,192,47065,1,0,0:0:0:0:
42,192,47538,1,0,0:0:0:0:
384,192,47538,1,0,0:0:0:0:
298,192,47656,1,0,0:0:0:0:
384,192,47774,1,0,0:0:0:0:
42,192,48010,1,0,0:0:0:0:
128,192,48010,1,0,0:0:0:0:
469,192,48246,1,0,0:0:0:0:
384,192,48482,1,0,0:0:0:0:
42,192,48482,1,0,0:0:0:0:
298,192,48719,1,0,0:0:0:0:
42,192,48955,1,0,0:0:0:0:
213,192,48955,1,0,0:0:0:0:
42,192,49427,1,0,0:0:0:0:
128,192,49427,1,0,0:0:0:0:
213,192,49545,1,0,0:0:0:0:
298,192,49664,1,0,0:0:0:0:
384,192,49900,1,0,0:0:0:0:
42,192,49900,1,0,0:0:0:0:
298,192,50018,1,0,0:0:0:0:
213,192,50136,1,0,0:0:0:0:
42,192,50372,1,0,0:0:0:0:
128,192,50372,1,0,0:0:0:0:
298,192,50608,1,0,0:0:0:0:
469,192,50845,1,0,0:0:0:0:
42,192,50845,1,0,0:0:0:0:
213,192,51081,1,0,0:0:0:0:
42,192,51317,1,0,0:0:0:0:
469,192,51317,1,0,0:0:0:0:
128,192,51435,1,0,0:0:0:0:
298,192,51553,1,0,0:0:0:0:
469,192,51790,1,0,0:0:0:0:
42,192,51790,1,0,0:0:0:0:
384,192,51908,1,0,0:0:0:0:
213,192,52026,1,0,0:0:0:0:
42,192,52262,1,0,0:0:0:0:
298,192,52262,1,0,0:0:0:0:
213,192,52498,1,0,0:0:0:0:
42,192,52734,1,0,0:0:0:0:
384,192,52734,1,0,0:0:0:0:
469,192,53207,1,0,0:0:0:0:
42,192,53207,1,0,0:0:0:0:
384,192,53325,1,0,0:0:0:0:
469,192,53443,1,0,0:0:0:0:
298,192,53679,1,0,0:0:0:0:
42,192,53679,1,0,0:0:0:0:
469,192,53916,1,0,0:0:0:0:
384,192,54152,1,0,0:0:0:0:
42,192,54152,1,0,0:0:0:0:
298,192,54388,1,0,0:0:0:0:
42,192,54624,1,0,0:0:0:0:
213,192,54624,1,0,0:0:0:0:
42,192,55097,1,0,0:0:0:0:
384,192,55097,1,0,0:0:0:0:
213,192,55215,1,0,0:0:0:0:
298,192,55333,1,0,0:0:0:0:
384,192,55451,1,0,0:0:0:0:
42,192,55569,1,0,0:0:0:0:
298,192,55569,1,0,0:0:0:0:
469,192,55805,1,0,0:0:0:0:
384,192,56042,1,0,0:0:0:0:
42,192,56042,1,0,0:0:0:0:
42,192,56514,1,0,0:0:0:0:
298,192,56750,1,0,0:0:0:0:
42,192,56986,1,0,0:0:0:0:
469,192,56986,1,0,0:0:0:0:
128,192,56986,1,0,0:0:0:0:
213,192,57223,1,0,0:0:0:0:
469,192,57459,1,0,0:0:0:0:
128,192,57459,1,0,0:0:0:0:
384,192,57577,1,0,0:0:0:0:
298,192,57695,1,0,0:0:0:0:
42,192,57931,1,0,0:0:0:0:
384,192,57931,1,0,0:0:0:0:
469,192,57931,1,0,0:0:0:0:
42,192,58168,1,0,0:0:0:0:
128,192,58404,1,0,0:0:0:0:
384,192,58404,1,0,0:0:0:0:
298,192,58522,1,0,0:0:0:0:
128,192,58640,1,0,0:0:0:0:
469,192,58876,1,0,0:0:0:0:
384,192,58876,1,0,0:0:0:0:
42,192,58876,1,0,0:0:0:0:
469,192,59112,1,0,0:0:0:0:
42,192,59349,1,0,0:0:0:0:
128,192,59349,1,0,0:0:0:0:
384,192,59349,1,0,0:0:0:0:
213,192,59585,1,0,0:0:0:0:
298,192,59703,1,0,0:0:0:0:
384,192,59703,1,0,0:0:0:0:
128,192,59703,1,0,0:0:0:0:
128,192,60057,1,0,0:0:0:0:
42,192,60057,1,0,0:0:0:0:
128,192,60294,1,0,0:0:0:0:
213,192,60294,1,0,0:0:0:0:
213,192,60530,1,0,0:0:0:0:
298,192,60530,1,0,0:0:0:0:
469,192,60766,1,0,0:0:0:0:
384,192,60766,1,0,0:0:0:0:
298,192,60766,1,0,0:0:0:0:
42,192,61002,1,0,0:0:0:0:
469,192,61238,1,0,0:0:0:0:
213,192,61238,1,0,0:0:0:0:
384,192,61356,1,0,0:0:0:0:
298,192,61475,1,0,0:0:0:0:
42,192,61711,1,0,0:0:0:0:
128,192,61711,1,0,0:0:0:0:
469,192,61711,1,0,0:0:0:0:
213,192,61947,1,0,0:0:0:0:
128,192,62183,1,0,0:0:0:0:
469,192,62183,1,0,0:0:0:0:
298,192,62301,1,0,0:0:0:0:
213,192,62419,1,0,0:0:0:0:
42,192,62656,1,0,0:0:0:0:
469,192,62656,128,0,63601:0:0:0:0:
128,192,62656,1,0,0:0:0:0:
42,192,63128,1,0,0:0:0:0:
128,192,63601,1,0,0:0:0:0:
42,192,63601,1,0,0:0:0:0:
213,192,63955,1,0,0:0:0:0:
42,192,64073,1,0,0:0:0:0:
298,192,64309,1,0,0:0:0:0:
469,192,64545,1,0,0:0:0:0:
42,192,64545,1,0,0:0:0:0:
298,192,64703,1,0,0:0:0:0:
298,192,64860,1,0,0:0:0:0:
298,192,65018,1,0,0:0:0:0:
298,192,65175,1,0,0:0:0:0:
298,192,65333,1,0,0:0:0:0:
42,192,65490,1,0,0:0:0:0:
128,192,65490,1,0,0:0:0:0:
128,192,65727,1,0,0:0:0:0:
213,192,65963,1,0,0:0:0:0:
384,192,66199,1,0,0:0:0:0:
298,192,66317,1,0,0:0:0:0:
42,192,66435,1,0,0:0:0:0:
384,192,66435,1,0,0:0:0:0:
469,192,66435,1,0,0:0:0:0:
128,192,66790,1,0,0:0:0:0:
42,192,66908,1,0,0:0:0:0:
384,192,67144,1,0,0:0:0:0:
213,192,67380,1,0,0:0:0:0:
42,192,67380,1,0,0:0:0:0:
469,192,67734,1,0,0:0:0:0:
42,192,67853,1,0,0:0:0:0:
384,192,68089,1,0,0:0:0:0:
298,192,68325,1,0,0:0:0:0:
42,192,68325,1,0,0:0:0:0:
213,192,68679,1,0,0:0:0:0:
42,192,68797,1,0,0:0:0:0:
384,192,69034,1,0,0:0:0:0:
42,192,69270,1,0,0:0:0:0:
298,192,69270,1,0,0:0:0:0:
213,192,69624,1,0,0:0:0:0:
42,192,69742,1,0,0:0:0:0:
128,192,69979,1,0,0:0:0:0:
213,192,70215,1,0,0:0:0:0:
42,192,70215,1,0,0:0:0:0:
469,192,70687,1,0,0:0:0:0:
42,192,70687,1,0,0:0:0:0:
384,192,71160,1,0,0:0:0:0:
42,192,71160,1,0,0:0:0:0:
298,192,71514,1,0,0:0:0:0:
42,192,71632,1,0,0:0:0:0:
128,192,71868,1,0,0:0:0:0:
42,192,72105,1,0,0:0:0:0:
213,192,72105,1,0,0:0:0:0:
298,192,72223,1,0,0:0:0:0:
213,192,72341,1,0,0:0:0:0:
42,192,72577,1,0,0:0:0:0:
42,192,73049,1,0,0:0:0:0:
128,192,73286,1,0,0:0:0:0:
213,192,73522,1,0,0:0:0:0:
42,192,73522,1,0,0:0:0:0:
298,192,73758,1,0,0:0:0:0:
384,192,73994,1,0,0:0:0:0:
42,192,73994,1,0,0:0:0:0:
128,192,74349,1,0,0:0:0:0:
42,192,74467,1,0,0:0:0:0:
384,192,74703,1,0,0:0:0:0:
213,192,74939,1,0,0:0:0:0:
42,192,74939,1,0,0:0:0:0:
469,192,75294,1,0,0:0:0:0:
42,192,75412,1,0,0:0:0:0:
384,192,75648,1,0,0:0:0:0:
298,192,75884,1,0,0:0:0:0:
42,192,75884,1,0,0:0:0:0:
213,192,76238,1,0,0:0:0:0:
42,192,76356,1,0,0:0:0:0:
384,192,76593,1,0,0:0:0:0:
42,192,76829,1,0,0:0:0:0:
298,192,76829,1,0,0:0:0:0:
213,192,77183,1,0,0:0:0:0:
42,192,77301,1,0,0:0:0:0:
128,192,77538,1,0,0:0:0:0:
213,192,77774,1,0,0:0:0:0:
42,192,77774,1,0,0:0:0:0:
469,192,78246,1,0,0:0:0:0:
42,192,78246,1,0,0:0:0:0:
384,192,78719,1,0,0:0:0:0:
42,192,78719,1,0,0:0:0:0:
298,192,79073,1,0,0:0:0:0:
42,192,79191,1,0,0:0:0:0:
128,192,79427,1,0,0:0:0:0:
213,192,79664,1,0,0:0:0:0:
298,192,79664,1,0,0:0:0:0:
213,192,80018,1,0,0:0:0:0:
298,192,80018,1,0,0:0:0:0:
213,192,80372,1,0,0:0:0:0:
298,192,80372,1,0,0:0:0:0:
469,192,80608,1,0,0:0:0:0:
213,192,80608,1,0,0:0:0:0:
469,192,80766,1,0,0:0:0:0:
213,192,80766,1,0,0:0:0:0:
213,192,80923,1,0,0:0:0:0:
469,192,80923,1,0,0:0:0:0:
128,192,81081,1,0,0:0:0:0:
384,192,81081,1,0,0:0:0:0:
42,192,81553,1,0,0:0:0:0:
469,192,81553,1,0,0:0:0:0:
128,192,81790,1,0,0:0:0:0:
213,192,82026,1,0,0:0:0:0:
384,192,82262,1,0,0:0:0:0:
298,192,82498,1,0,0:0:0:0:
469,192,82853,1,0,0:0:0:0:
384,192,83207,1,0,0:0:0:0:
298,192,83443,1,0,0:0:0:0:
128,192,83797,1,0,0:0:0:0:
298,192,84152,1,0,0:0:0:0:
213,192,84388,1,0,0:0:0:0:
298,192,85097,1,0,0:0:0:0:
213,192,85215,1,0,0:0:0:0:
128,192,85333,1,0,0:0:0:0:
213,192,85687,1,0,0:0:0:0:
298,192,86042,1,0,0:0:0:0:
42,192,86278,1,0,0:0:0:0:
298,192,86750,1,0,0:0:0:0:
384,192,87223,1,0,0:0:0:0:
128,192,87577,1,0,0:0:0:0:
469,192,87931,1,0,0:0:0:0:
298,192,88168,1,0,0:0:0:0:
42,192,88168,1,0,0:0:0:0:
128,192,88325,1,0,0:0:0:0:
213,192,88482,1,0,0:0:0:0:
298,192,88640,1,0,0:0:0:0:
213,192,88797,1,0,0:0:0:0:
469,192,88955,1,0,0:0:0:0:
42,192,89112,1,0,0:0:0:0:
384,192,89112,1,0,0:0:0:0:
128,192,89349,1,0,0:0:0:0:
213,192,89585,1,0,0:0:0:0:
384,192,89821,1,0,0:0:0:0:
298,192,90057,1,0,0:0:0:0:
469,192,90412,1,0,0:0:0:0:
384,192,90766,1,0,0:0:0:0:
298,192,91002,1,0,0:0:0:0:
128,192,91356,1,0,0:0:0:0:
298,192,91711,1,0,0:0:0:0:
213,192,91947,1,0,0:0:0:0:
298,192,92656,1,0,0:0:0:0:
213,192,92774,1,0,0:0:0:0:
128,192,92892,1,0,0:0:0:0:
213,192,93246,1,0,0:0:0:0:
298,192,93601,1,0,0:0:0:0:
384,192,93837,1,0,0:0:0:0:
298,192,94191,1,0,0:0:0:0:
128,192,94545,1,0,0:0:0:0:
469,192,94782,1,0,0:0:0:0:
213,192,94782,1,0,0:0:0:0:
384,192,95254,1,0,0:0:0:0:
128,192,95254,1,0,0:0:0:0:
298,192,95608,1,0,0:0:0:0:
42,192,95608,1,0,0:0:0:0:
128,192,95845,1,0,0:0:0:0:
298,192,95963,1,0,0:0:0:0:
469,192,96081,1,0,0:0:0:0:
298,192,96317,1,0,0:0:0:0:
469,192,96671,1,0,0:0:0:0:
42,192,96671,1,0,0:0:0:0:
128,192,96908,1,0,0:0:0:0:
42,192,97144,1,0,0:0:0:0:
469,192,97144,1,0,0:0:0:0:
298,192,97380,1,0,0:0:0:0:
42,192,97616,1,0,0:0:0:0:
384,192,97616,1,0,0:0:0:0:
42,192,98089,1,0,0:0:0:0:
298,192,98089,1,0,0:0:0:0:
384,192,98325,1,0,0:0:0:0:
42,192,98561,1,0,0:0:0:0:
469,192,98561,1,0,0:0:0:0:
213,192,98797,1,0,0:0:0:0:
42,192,99034,1,0,0:0:0:0:
469,192,99034,1,0,0:0:0:0:
298,192,99270,1,0,0:0:0:0:
42,192,99506,1,0,0:0:0:0:
384,192,99506,1,0,0:0:0:0:
298,192,99742,1,0,0:0:0:0:
42,192,99979,1,0,0:0:0:0:
213,192,99979,1,0,0:0:0:0:
42,192,100451,1,0,0:0:0:0:
128,192,100451,1,0,0:0:0:0:
42,192,100923,1,0,0:0:0:0:
384,192,100923,1,0,0:0:0:0:
42,192,101396,1,0,0:0:0:0:
469,192,101396,1,0,0:0:0:0:
384,192,101632,1,0,0:0:0:0:
42,192,101868,1,0,0:0:0:0:
298,192,101868,1,0,0:0:0:0:
213,192,102105,1,0,0:0:0:0:
42,192,102341,1,0,0:0:0:0:
384,192,102341,1,0,0:0:0:0:
42,192,102813,1,0,0:0:0:0:
469,192,103049,1,0,0:0:0:0:
384,192,103168,1,0,0:0:0:0:
42,192,103286,1,0,0:0:0:0:
298,192,103286,1,0,0:0:0:0:
384,192,103522,1,0,0:0:0:0:
213,192,103640,1,0,0:0:0:0:
42,192,103758,1,0,0:0:0:0:
384,192,103758,1,0,0:0:0:0:
213,192,103876,1,0,0:0:0:0:
384,192,103994,1,0,0:0:0:0:
213,192,104112,1,0,0:0:0:0:
42,192,104231,1,0,0:0:0:0:
469,192,104231,1,0,0:0:0:0:
128,192,104467,1,0,0:0:0:0:
42,192,104703,1,0,0:0:0:0:
469,192,104703,1,0,0:0:0:0:
298,192,104939,1,0,0:0:0:0:
42,192,105175,1,0,0:0:0:0:
384,192,105175,1,0,0:0:0:0:
42,192,105648,1,0,0:0:0:0:
213,192,105648,1,0,0:0:0:0:
298,192,105884,1,0,0:0:0:0:
42,192,106120,1,0,0:0:0:0:
384,192,106120,1,0,0:0:0:0:
128,192,106356,1,0,0:0:0:0:
42,192,106593,1,0,0:0:0:0:
469,192,106593,1,0,0:0:0:0:
213,192,106829,1,0,0:0:0:0:
42,192,107065,1,0,0:0:0:0:
298,192,107065,1,0,0:0:0:0:
42,192,107538,1,0,0:0:0:0:
298,192,107774,1,0,0:0:0:0:
298,192,107892,1,0,0:0:0:0:
469,192,108010,1,0,0:0:0:0:
42,192,108010,1,0,0:0:0:0:
128,192,108010,1,0,0:0:0:0:
213,192,108482,1,0,0:0:0:0:
42,192,108482,1,0,0:0:0:0:
298,192,108955,1,0,0:0:0:0:
42,192,108955,1,0,0:0:0:0:
128,192,108955,1,0,0:0:0:0:
469,192,109309,1,0,0:0:0:0:
42,192,109427,1,0,0:0:0:0:
384,192,109664,1,0,0:0:0:0:
42,192,109900,1,0,0:0:0:0:
384,192,109900,128,0,110608:0:0:0:0:
42,192,110372,1,0,0:0:0:0:
298,192,110608,1,0,0:0:0:0:
213,192,110727,1,0,0:0:0:0:
298,192,110845,1,0,0:0:0:0:
469,192,110963,1,0,0:0:0:0:
213,192,111081,1,0,0:0:0:0:
384,192,111199,1,0,0:0:0:0:
42,192,111317,1,0,0:0:0:0:
469,192,111435,1,0,0:0:0:0:
128,192,111553,1,0,0:0:0:0:
298,192,111671,1,0,0:0:0:0:
469,192,111790,1,0,0:0:0:0:
42,192,111790,1,0,0:0:0:0:
384,192,111908,1,0,0:0:0:0:
469,192,112026,1,0,0:0:0:0:
42,192,112262,1,0,0:0:0:0:
213,192,112262,1,0,0:0:0:0:
469,192,112498,1,0,0:0:0:0:
384,192,112734,1,0,0:0:0:0:
42,192,112734,1,0,0:0:0:0:
298,192,112971,1,0,0:0:0:0:
42,192,113207,1,0,0:0:0:0:
213,192,113207,1,0,0:0:0:0:
42,192,113679,1,0,0:0:0:0:
384,192,113679,1,0,0:0:0:0:
298,192,113797,1,0,0:0:0:0:
384,192,113916,1,0,0:0:0:0:
42,192,114152,1,0,0:0:0:0:
128,192,114152,1,0,0:0:0:0:
469,192,114388,1,0,0:0:0:0:
384,192,114624,1,0,0:0:0:0:
42,192,114624,1,0,0:0:0:0:
298,192,114860,1,0,0:0:0:0:
42,192,115097,1,0,0:0:0:0:
213,192,115097,1,0,0:0:0:0:
42,192,115569,1,0,0:0:0:0:
128,192,115569,1,0,0:0:0:0:
213,192,115687,1,0,0:0:0:0:
298,192,115805,1,0,0:0:0:0:
384,192,116042,1,0,0:0:0:0:
42,192,116042,1,0,0:0:0:0:
298,192,116160,1,0,0:0:0:0:
213,192,116278,1,0,0:0:0:0:
42,192,116514,1,0,0:0:0:0:
128,192,116514,1,0,0:0:0:0:
298,192,116750,1,0,0:0:0:0:
469,192,116986,1,0,0:0:0:0:
42,192,116986,1,0,0:0:0:0:
213,192,117223,1,0,0:0:0:0:
42,192,117459,1,0,0:0:0:0:
469,192,117459,1,0,0:0:0:0:
128,192,117577,1,0,0:0:0:0:
298,192,117695,1,0,0:0:0:0:
469,192,117931,1,0,0:0:0:0:
42,192,117931,1,0,0:0:0:0:
384,192,118049,1,0,0:0:0:0:
213,192,118168,1,0,0:0:0:0:
42,192,118404,1,0,0:0:0:0:
298,192,118404,1,0,0:0:0:0:
213,192,118640,1,0,0:0:0:0:
42,192,118876,1,0,0:0:0:0:
384,192,118876,1,0,0:0:0:0:
469,192,119349,1,0,0:0:0:0:
42,192,119349,1,0,0:0:0:0:
384,192,119467,1,0,0:0:0:0:
469,192,119585,1,0,0:0:0:0:
298,192,119821,1,0,0:0:0:0:
42,192,119821,1,0,0:0:0:0:
469,192,120057,1,0,0:0:0:0:
384,192,120294,1,0,0:0:0:0:
42,192,120294,1,0,0:0:0:0:
298,192,120530,1,0,0:0:0:0:
42,192,120766,1,0,0:0:0:0:
213,192,120766,1,0,0:0:0:0:
42,192,121238,1,0,0:0:0:0:
384,192,121238,1,0,0:0:0:0:
213,192,121356,1,0,0:0:0:0:
298,192,121475,1,0,0:0:0:0:
384,192,121593,1,0,0:0:0:0:
42,192,121711,1,0,0:0:0:0:
298,192,121711,1,0,0:0:0:0:
469,192,121947,1,0,0:0:0:0:
384,192,122183,1,0,0:0:0:0:
42,192,122183,1,0,0:0:0:0:
42,192,122656,1,0,0:0:0:0:
298,192,122892,1,0,0:0:0:0:
42,192,123128,1,0,0:0:0:0:
469,192,123128,1,0,0:0:0:0:
128,192,123128,1,0,0:0:0:0:
213,192,123364,1,0,0:0:0:0:
469,192,123601,1,0,0:0:0:0:
128,192,123601,1,0,0:0:0:0:
384,192,123719,1,0,0:0:0:0:
298,192,123837,1,0,0:0:0:0:
42,192,124073,1,0,0:0:0:0:
384,192,124073,1,0,0:0:0:0:
469,192,124073,1,0,0:0:0:0:
42,192,124309,1,0,0:0:0:0:
128,192,124545,1,0,0:0:0:0:
384,192,124545,1,0,0:0:0:0:
298,192,124664,1,0,0:0:0:0:
128,192,124782,1,0,0:0:0:0:
469,192,125018,1,0,0:0:0:0:
384,192,125018,1,0,0:0:0:0:
42,192,125018,1,0,0:0:0:0:
469,192,125254,1,0,0:0:0:0:
42,192,125490,1,0,0:0:0:0:
128,192,125490,1,0,0:0:0:0:
384,192,125490,1,0,0:0:0:0:
213,192,125727,1,0,0:0:0:0:
298,192,125845,1,0,0:0:0:0:
384,192,125845,1,0,0:0:0:0:
128,192,125845,1,0,0:0:0:0:
128,192,126199,1,0,0:0:0:0:
42,192,126199,1,0,0:0:0:0:
128,192,126435,1,0,0:0:0:0:
213,192,126435,1,0,0:0:0:0:
213,192,126671,1,0,0:0:0:0:
298,192,126671,1,0,0:0:0:0:
469,192,126908,1,0,0:0:0:0:
384,192,126908,1,0,0:0:0:0:
298,192,126908,1,0,0:0:0:0:
42,192,127144,1,0,0:0:0:0:
469,192,127380,1,0,0:0:0:0:
213,192,127380,1,0,0:0:0:0:
384,192,127498,1,0,0:0:0:0:
298,192,127616,1,0,0:0:0:0:
42,192,127853,1,0,0:0:0:0:
128,192,127853,1,0,0:0:0:0:
469,192,127853,1,0,0:0:0:0:
213,192,128089,1,0,0:0:0:0:
128,192,128325,1,0,0:0:0:0:
469,192,128325,1,0,0:0:0:0:
298,192,128443,1,0,0:0:0:0:
213,192,128561,1,0,0:0:0:0:
42,192,128797,1,0,0:0:0:0:
469,192,128797,128,0,129742:0:0:0:0:
128,192,128797,1,0,0:0:0:0:
42,192,129270,1,0,0:0:0:0:
128,192,129742,1,0,0:0:0:0:
42,192,129742,1,0,0:0:0:0:
213,192,130097,1,0,0:0:0:0:
42,192,130215,1,0,0:0:0:0:
298,192,130451,1,0,0:0:0:0:
469,192,130687,1,0,0:0:0:0:
42,192,130687,1,0,0:0:0:0:
298,192,130845,1,0,0:0:0:0:
298,192,131002,1,0,0:0:0:0:
298,192,131160,1,0,0:0:0:0:
298,192,131317,1,0,0:0:0:0:
298,192,131475,1,0,0:0:0:0:
42,192,131632,1,0,0:0:0:0:
128,192,131632,1,0,0:0:0:0:
128,192,131868,1,0,0:0:0:0:
213,192,132105,1,0,0:0:0:0:
384,192,132341,1,0,0:0:0:0:
298,192,132459,1,0,0:0:0:0:
469,192,132577,1,0,0:0:0:0:
213,192,132577,1,0,0:0:0:0:
384,192,132931,1,0,0:0:0:0:
128,192,132931,1,0,0:0:0:0:
298,192,133286,1,0,0:0:0:0:
42,192,133286,1,0,0:0:0:0:
213,192,133364,1,0,0:0:0:0:
213,192,133522,1,0,0:0:0:0:
128,192,133679,1,0,0:0:0:0:
298,192,133837,1,0,0:0:0:0:
384,192,133994,1,0,0:0:0:0:
213,192,134152,1,0,0:0:0:0:
384,192,134309,1,0,0:0:0:0:
469,192,134467,1,0,0:0:0:0:
42,192,134467,1,0,0:0:0:0:
128,192,134821,1,0,0:0:0:0:
384,192,134821,1,0,0:0:0:0:
213,192,135175,1,0,0:0:0:0:
298,192,135175,1,0,0:0:0:0:
384,192,135530,1,0,0:0:0:0:
298,192,135648,1,0,0:0:0:0:
213,192,135766,1,0,0:0:0:0:
298,192,135884,1,0,0:0:0:0:
213,192,136002,1,0,0:0:0:0:
128,192,136120,1,0,0:0:0:0:
213,192,136238,1,0,0:0:0:0:
42,192,136356,1,0,0:0:0:0:
469,192,136356,1,0,0:0:0:0:
384,192,136711,1,0,0:0:0:0:
42,192,136711,1,0,0:0:0:0:
42,192,137065,1,0,0:0:0:0:
298,192,137065,1,0,0:0:0:0:
42,192,137301,1,0,0:0:0:0:
469,192,137419,1,0,0:0:0:0:
298,192,137538,1,0,0:0:0:0:
128,192,137656,1,0,0:0:0:0:
469,192,137774,1,0,0:0:0:0:
298,192,137892,1,0,0:0:0:0:
128,192,138010,1,0,0:0:0:0:
384,192,138128,1,0,0:0:0:0:
42,192,138246,1,0,0:0:0:0:
298,192,138246,1,0,0:0:0:0:
128,192,138601,1,0,0:0:0:0:
384,192,138601,1,0,0:0:0:0:
213,192,138955,1,0,0:0:0:0:
469,192,138955,1,0,0:0:0:0:
42,192,139191,1,0,0:0:0:0:
128,192,139309,1,0,0:0:0:0:
213,192,139427,1,0,0:0:0:0:
128,192,139545,1,0,0:0:0:0:
213,192,139664,1,0,0:0:0:0:
298,192,139782,1,0,0:0:0:0:
384,192,139900,1,0,0:0:0:0:
298,192,140018,1,0,0:0:0:0:
469,192,140136,1,0,0:0:0:0:
213,192,140136,1,0,0:0:0:0:
384,192,140490,1,0,0:0:0:0:
128,192,140490,1,0,0:0:0:0:
298,192,140845,1,0,0:0:0:0:
42,192,140845,1,0,0:0:0:0:
213,192,140963,1,0,0:0:0:0:
384,192,141199,1,0,0:0:0:0:
298,192,141435,1,0,0:0:0:0:
384,192,141671,1,0,0:0:0:0:
128,192,141790,1,0,0:0:0:0:
469,192,142026,1,0,0:0:0:0:
42,192,142026,1,0,0:0:0:0:
128,192,142380,1,0,0:0:0:0:
384,192,142380,1,0,0:0:0:0:
213,192,142734,1,0,0:0:0:0:
298,192,142734,1,0,0:0:0:0:
469,192,143089,1,0,0:0:0:0:
213,192,143325,1,0,0:0:0:0:
298,192,143443,1,0,0:0:0:0:
384,192,143522,1,0,0:0:0:0:
298,192,143601,1,0,0:0:0:0:
213,192,143679,1,0,0:0:0:0:
128,192,143797,1,0,0:0:0:0:
42,192,143916,1,0,0:0:0:0:
469,192,143916,1,0,0:0:0:0:
384,192,144270,1,0,0:0:0:0:
42,192,144270,1,0,0:0:0:0:
42,192,144624,1,0,0:0:0:0:
298,192,144624,1,0,0:0:0:0:
213,192,144742,1,0,0:0:0:0:
384,192,144979,1,0,0:0:0:0:
298,192,145215,1,0,0:0:0:0:
469,192,145451,1,0,0:0:0:0:
213,192,145569,1,0,0:0:0:0:
42,192,145805,1,0,0:0:0:0:
469,192,145805,1,0,0:0:0:0:
128,192,146042,1,0,0:0:0:0:
42,192,146160,1,0,0:0:0:0:
469,192,146160,1,0,0:0:0:0:
298,192,146396,1,0,0:0:0:0:
469,192,146514,1,0,0:0:0:0:
42,192,146514,1,0,0:0:0:0:
384,192,146632,1,0,0:0:0:0:
128,192,146750,1,0,0:0:0:0:
384,192,146829,1,0,0:0:0:0:
128,192,146908,1,0,0:0:0:0:
384,192,146986,1,0,0:0:0:0:
128,192,147065,1,0,0:0:0:0:
384,192,147144,1,0,0:0:0:0:
128,192,147223,1,0,0:0:0:0:
384,192,147301,1,0,0:0:0:0:
128,192,147380,1,0,0:0:0:0:
384,192,147459,1,0,0:0:0:0:
128,192,147538,1,0,0:0:0:0:
384,192,147616,1,0,0:0:0:0:
42,192,147695,1,0,0:0:0:0:
298,192,147695,1,0,0:0:0:0:
128,192,147931,1,0,0:0:0:0:
298,192,148049,1,0,0:0:0:0:
42,192,148168,1,0,0:0:0:0:
384,192,148286,1,0,0:0:0:0:
469,192,148522,1,0,0:0:0:0:
128,192,148640,1,0,0:0:0:0:
384,192,148876,1,0,0:0:0:0:
298,192,149112,1,0,0:0:0:0:
128,192,149112,1,0,0:0:0:0:
213,192,149349,1,0,0:0:0:0:
384,192,149585,1,0,0:0:0:0:
298,192,149585,1,0,0:0:0:0:
128,192,149821,1,0,0:0:0:0:
128,192,149939,1,0,0:0:0:0:
298,192,150057,1,0,0:0:0:0:
128,192,150530,1,0,0:0:0:0:
298,192,150766,1,0,0:0:0:0:
213,192,151002,1,0,0:0:0:0:
384,192,151002,1,0,0:0:0:0:
128,192,151238,1,0,0:0:0:0:
42,192,151475,1,0,0:0:0:0:
298,192,151475,1,0,0:0:0:0:
128,192,151829,1,0,0:0:0:0:
298,192,151947,1,0,0:0:0:0:
213,192,152183,1,0,0:0:0:0:
298,192,152419,1,0,0:0:0:0:
42,192,152419,1,0,0:0:0:0:
384,192,152774,1,0,0:0:0:0:
42,192,152892,1,0,0:0:0:0:
469,192,153128,1,0,0:0:0:0:
469,192,153364,1,0,0:0:0:0:
213,192,153364,1,0,0:0:0:0:
213,192,153837,1,0,0:0:0:0:
298,192,154073,1,0,0:0:0:0:
298,192,154191,1,0,0:0:0:0:
128,192,154309,1,0,0:0:0:0:
128,192,154782,1,0,0:0:0:0:
298,192,155018,1,0,0:0:0:0:
213,192,155136,1,0,0:0:0:0:
42,192,155254,1,0,0:0:0:0:
384,192,155254,1,0,0:0:0:0:
128,192,155490,1,0,0:0:0:0:
298,192,155608,1,0,0:0:0:0:
42,192,155727,1,0,0:0:0:0:
384,192,155845,1,0,0:0:0:0:
469,192,156081,1,0,0:0:0:0:
128,192,156199,1,0,0:0:0:0:
384,192,156435,1,0,0:0:0:0:
298,192,156671,1,0,0:0:0:0:
128,192,156671,1,0,0:0:0:0:
213,192,156908,1,0,0:0:0:0:
384,192,157144,1,0,0:0:0:0:
298,192,157144,1,0,0:0:0:0:
128,192,157380,1,0,0:0:0:0:
128,192,157498,1,0,0:0:0:0:
298,192,157616,1,0,0:0:0:0:
128,192,158089,1,0,0:0:0:0:
298,192,158325,1,0,0:0:0:0:
213,192,158561,1,0,0:0:0:0:
384,192,158561,1,0,0:0:0:0:
128,192,158797,1,0,0:0:0:0:
128,192,159034,1,0,0:0:0:0:
298,192,159034,1,0,0:0:0:0:
42,192,159506,1,0,0:0:0:0:
298,192,159742,1,0,0:0:0:0:
384,192,159860,1,0,0:0:0:0:
469,192,159979,1,0,0:0:0:0:
42,192,159979,1,0,0:0:0:0:
213,192,160333,1,0,0:0:0:0:
42,192,160451,1,0,0:0:0:0:
384,192,160687,1,0,0:0:0:0:
42,192,160923,1,0,0:0:0:0:
298,192,160923,128,0,162813:0:0:0:0:
128,192,161278,1,0,0:0:0:0:
213,192,161632,1,0,0:0:0:0:
213,192,161868,1,0,0:0:0:0:
384,192,162223,1,0,0:0:0:0:
469,192,162577,1,0,0:0:0:0:
298,192,162931,1,0,0:0:0:0:
469,192,163049,1,0,0:0:0:0:
213,192,163168,1,0,0:0:0:0:
384,192,163286,1,0,0:0:0:0:
128,192,163404,1,0,0:0:0:0:
298,192,163522,1,0,0:0:0:0:
42,192,163640,1,0,0:0:0:0:
213,192,163758,1,0,0:0:0:0:
384,192,163758,1,0,0:0:0:0:
384,192,163916,1,0,0:0:0:0:
213,192,163916,1,0,0:0:0:0:
384,192,164073,1,0,0:0:0:0:
213,192,164073,1,0,0:0:0:0:
384,192,164231,1,0,0:0:0:0:
213,192,164231,1,0,0:0:0:0:
469,192,164703,1,0,0:0:0:0:
42,192,164703,1,0,0:0:0:0:
384,192,164821,1,0,0:0:0:0:
469,192,164939,1,0,0:0:0:0:
42,192,165057,1,0,0:0:0:0:
213,192,165175,1,0,0:0:0:0:
469,192,165412,1,0,0:0:0:0:
384,192,165648,1,0,0:0:0:0:
42,192,165648,1,0,0:0:0:0:
298,192,165884,1,0,0:0:0:0:
42,192,166002,1,0,0:0:0:0:
213,192,166120,1,0,0:0:0:0:
384,192,166593,1,0,0:0:0:0:
42,192,166593,1,0,0:0:0:0:
298,192,166711,1,0,0:0:0:0:
384,192,166829,1,0,0:0:0:0:
42,192,166947,1,0,0:0:0:0:
128,192,167065,1,0,0:0:0:0:
469,192,167301,1,0,0:0:0:0:
384,192,167538,1,0,0:0:0:0:
42,192,167538,1,0,0:0:0:0:
298,192,167774,1,0,0:0:0:0:
42,192,167892,1,0,0:0:0:0:
213,192,168010,1,0,0:0:0:0:
128,192,168482,1,0,0:0:0:0:
42,192,168482,1,0,0:0:0:0:
213,192,168601,1,0,0:0:0:0:
298,192,168719,1,0,0:0:0:0:
42,192,168837,1,0,0:0:0:0:
384,192,168955,1,0,0:0:0:0:
298,192,169073,1,0,0:0:0:0:
213,192,169191,1,0,0:0:0:0:
128,192,169427,1,0,0:0:0:0:
42,192,169427,1,0,0:0:0:0:
298,192,169664,1,0,0:0:0:0:
42,192,169782,1,0,0:0:0:0:
469,192,169900,1,0,0:0:0:0:
213,192,170136,1,0,0:0:0:0:
469,192,170372,1,0,0:0:0:0:
42,192,170372,1,0,0:0:0:0:
128,192,170490,1,0,0:0:0:0:
298,192,170608,1,0,0:0:0:0:
42,192,170727,1,0,0:0:0:0:
469,192,170845,1,0,0:0:0:0:
384,192,170963,1,0,0:0:0:0:
213,192,171081,1,0,0:0:0:0:
298,192,171317,1,0,0:0:0:0:
42,192,171317,1,0,0:0:0:0:
213,192,171553,1,0,0:0:0:0:
298,192,171553,1,0,0:0:0:0:
384,192,171790,1,0,0:0:0:0:
42,192,171790,1,0,0:0:0:0:
469,192,172262,1,0,0:0:0:0:
42,192,172262,1,0,0:0:0:0:
384,192,172380,1,0,0:0:0:0:
469,192,172498,1,0,0:0:0:0:
298,192,172734,1,0,0:0:0:0:
42,192,172734,1,0,0:0:0:0:
469,192,172971,1,0,0:0:0:0:
384,192,173207,1,0,0:0:0:0:
42,192,173207,1,0,0:0:0:0:
298,192,173443,1,0,0:0:0:0:
213,192,173679,1,0,0:0:0:0:
42,192,173679,1,0,0:0:0:0:
384,192,174152,1,0,0:0:0:0:
42,192,174152,1,0,0:0:0:0:
213,192,174270,1,0,0:0:0:0:
298,192,174388,1,0,0:0:0:0:
384,192,174506,1,0,0:0:0:0:
298,192,174624,1,0,0:0:0:0:
42,192,174624,1,0,0:0:0:0:
469,192,174860,1,0,0:0:0:0:
384,192,175097,1,0,0:0:0:0:
42,192,175097,1,0,0:0:0:0:
42,192,175569,1,0,0:0:0:0:
298,192,175805,1,0,0:0:0:0:
42,192,176042,1,0,0:0:0:0:
469,192,176042,1,0,0:0:0:0:
128,192,176042,1,0,0:0:0:0:
213,192,176278,1,0,0:0:0:0:
469,192,176514,1,0,0:0:0:0:
128,192,176514,1,0,0:0:0:0:
384,192,176632,1,0,0:0:0:0:
298,192,176750,1,0,0:0:0:0:
42,192,176986,1,0,0:0:0:0:
384,192,176986,1,0,0:0:0:0:
469,192,176986,1,0,0:0:0:0:
42,192,177223,1,0,0:0:0:0:
128,192,177459,1,0,0:0:0:0:
384,192,177459,1,0,0:0:0:0:
298,192,177577,1,0,0:0:0:0:
128,192,177695,1,0,0:0:0:0:
469,192,177931,1,0,0:0:0:0:
384,192,177931,1,0,0:0:0:0:
42,192,177931,1,0,0:0:0:0:
42,192,178286,1,0,0:0:0:0:
384,192,178286,1,0,0:0:0:0:
469,192,178286,1,0,0:0:0:0:
469,192,178640,1,0,0:0:0:0:
384,192,178640,1,0,0:0:0:0:
42,192,178640,1,0,0:0:0:0:
42,192,178876,1,0,0:0:0:0:
128,192,178876,1,0,0:0:0:0:
213,192,178876,1,0,0:0:0:0:
298,192,178994,1,0,0:0:0:0:
384,192,179112,1,0,0:0:0:0:
213,192,179231,1,0,0:0:0:0:
298,192,179349,1,0,0:0:0:0:
384,192,179349,1,0,0:0:0:0:
469,192,179349,1,0,0:0:0:0:
128,192,179467,1,0,0:0:0:0:
213,192,179585,1,0,0:0:0:0:
298,192,179703,1,0,0:0:0:0:
469,192,179821,1,0,0:0:0:0:
42,192,179821,1,0,0:0:0:0:
384,192,179939,1,0,0:0:0:0:
469,192,180057,1,0,0:0:0:0:
42,192,180294,1,0,0:0:0:0:
213,192,180294,1,0,0:0:0:0:
128,192,180294,1,0,0:0:0:0:
469,192,180530,1,0,0:0:0:0:
384,192,180766,1,0,0:0:0:0:
42,192,180766,1,0,0:0:0:0:
298,192,181002,1,0,0:0:0:0:
42,192,181238,1,0,0:0:0:0:
213,192,181238,1,0,0:0:0:0:
42,192,181711,1,0,0:0:0:0:
384,192,181711,1,0,0:0:0:0:
298,192,181829,1,0,0:0:0:0:
384,192,181947,1,0,0:0:0:0:
42,192,182183,1,0,0:0:0:0:
128,192,182183,1,0,0:0:0:0:
469,192,182419,1,0,0:0:0:0:
384,192,182656,1,0,0:0:0:0:
42,192,182656,1,0,0:0:0:0:
298,192,182892,1,0,0:0:0:0:
42,192,183128,1,0,0:0:0:0:
213,192,183128,1,0,0:0:0:0:
42,192,183601,1,0,0:0:0:0:
128,192,183601,1,0,0:0:0:0:
213,192,183719,1,0,0:0:0:0:
298,192,183837,1,0,0:0:0:0:
384,192,184073,1,0,0:0:0:0:
42,192,184073,1,0,0:0:0:0:
298,192,184191,1,0,0:0:0:0:
213,192,184309,1,0,0:0:0:0:
42,192,184545,1,0,0:0:0:0:
128,192,184545,1,0,0:0:0:0:
298,192,184782,1,0,0:0:0:0:
469,192,185018,1,0,0:0:0:0:
42,192,185018,1,0,0:0:0:0:
213,192,185254,1,0,0:0:0:0:
42,192,185490,1,0,0:0:0:0:
469,192,185490,1,0,0:0:0:0:
128,192,185608,1,0,0:0:0:0:
298,192,185727,1,0,0:0:0:0:
469,192,185963,1,0,0:0:0:0:
42,192,185963,1,0,0:0:0:0:
384,192,186081,1,0,0:0:0:0:
213,192,186199,1,0,0:0:0:0:
42,192,186435,1,0,0:0:0:0:
298,192,186435,1,0,0:0:0:0:
213,192,186671,1,0,0:0:0:0:
42,192,186908,1,0,0:0:0:0:
384,192,186908,1,0,0:0:0:0:
469,192,187380,1,0,0:0:0:0:
42,192,187380,1,0,0:0:0:0:
384,192,187498,1,0,0:0:0:0:
469,192,187616,1,0,0:0:0:0:
298,192,187853,1,0,0:0:0:0:
42,192,187853,1,0,0:0:0:0:
469,192,188089,1,0,0:0:0:0:
384,192,188325,1,0,0:0:0:0:
42,192,188325,1,0,0:0:0:0:
298,192,188561,1,0,0:0:0:0:
42,192,188797,1,0,0:0:0:0:
213,192,188797,1,0,0:0:0:0:
42,192,189270,1,0,0:0:0:0:
384,192,189270,1,0,0:0:0:0:
213,192,189388,1,0,0:0:0:0:
298,192,189506,1,0,0:0:0:0:
384,192,189624,1,0,0:0:0:0:
42,192,189742,1,0,0:0:0:0:
298,192,189742,1,0,0:0:0:0:
469,192,189979,1,0,0:0:0:0:
384,192,190215,1,0,0:0:0:0:
42,192,190215,1,0,0:0:0:0:
42,192,190687,1,0,0:0:0:0:
298,192,190923,1,0,0:0:0:0:
42,192,191160,1,0,0:0:0:0:
469,192,191160,1,0,0:0:0:0:
128,192,191160,1,0,0:0:0:0:
213,192,191396,1,0,0:0:0:0:
469,192,191632,1,0,0:0:0:0:
128,192,191632,1,0,0:0:0:0:
384,192,191750,1,0,0:0:0:0:
298,192,191868,1,0,0:0:0:0:
42,192,192105,1,0,0:0:0:0:
384,192,192105,1,0,0:0:0:0:
469,192,192105,1,0,0:0:0:0:
42,192,192341,1,0,0:0:0:0:
128,192,192577,1,0,0:0:0:0:
384,192,192577,1,0,0:0:0:0:
298,192,192695,1,0,0:0:0:0:
128,192,192813,1,0,0:0:0:0:
469,192,193049,1,0,0:0:0:0:
384,192,193049,1,0,0:0:0:0:
42,192,193049,1,0,0:0:0:0:
469,192,193286,1,0,0:0:0:0:
42,192,193522,1,0,0:0:0:0:
128,192,193522,1,0,0:0:0:0:
384,192,193522,1,0,0:0:0:0:
213,192,193758,1,0,0:0:0:0:
298,192,193876,1,0,0:0:0:0:
384,192,193876,1,0,0:0:0:0:
128,192,193876,1,0,0:0:0:0:
128,192,194231,1,0,0:0:0:0:
42,192,194231,1,0,0:0:0:0:
128,192,194467,1,0,0:0:0:0:
213,192,194467,1,0,0:0:0:0:
213,192,194703,1,0,0:0:0:0:
298,192,194703,1,0,0:0:0:0:
469,192,194939,1,0,0:0:0:0:
384,192,194939,1,0,0:0:0:0:
298,192,194939,1,0,0:0:0:0:
42,192,195175,1,0,0:0:0:0:
469,192,195412,1,0,0:0:0:0:
213,192,195412,1,0,0:0:0:0:
384,192,195530,1,0,0:0:0:0:
298,192,195648,1,0,0:0:0:0:
42,192,195884,1,0,0:0:0:0:
128,192,195884,1,0,0:0:0:0:
469,192,195884,1,0,0:0:0:0:
213,192,196120,1,0,0:0:0:0:
128,192,196356,1,0,0:0:0:0:
469,192,196356,1,0,0:0:0:0:
298,192,196475,1,0,0:0:0:0:
213,192,196593,1,0,0:0:0:0:
42,192,196829,1,0,0:0:0:0:
469,192,196829,128,0,197774:0:0:0:0:
128,192,196829,1,0,0:0:0:0:
42,192,197301,1,0,0:0:0:0:
128,192,197774,1,0,0:0:0:0:
42,192,197774,1,0,0:0:0:0:
213,192,198128,1,0,0:0:0:0:
42,192,198246,1,0,0:0:0:0:
298,192,198482,1,0,0:0:0:0:
469,192,198719,1,0,0:0:0:0:
42,192,198719,1,0,0:0:0:0:
298,192,198876,1,0,0:0:0:0:
298,192,199034,1,0,0:0:0:0:
298,192,199191,1,0,0:0:0:0:
298,192,199349,1,0,0:0:0:0:
298,192,199506,1,0,0:0:0:0:
42,192,199664,1,0,0:0:0:0:
128,192,199664,1,0,0:0:0:0:
128,192,199900,1,0,0:0:0:0:
213,192,200136,1,0,0:0:0:0:
384,192,200372,1,0,0:0:0:0:
298,192,200490,1,0,0:0:0:0:
42,192,200608,1,0,0:0:0:0:
384,192,200608,1,0,0:0:0:0:
469,192,200608,1,0,0:0:0:0:
128,192,200963,1,0,0:0:0:0:
42,192,201081,1,0,0:0:0:0:
384,192,201317,1,0,0:0:0:0:
213,192,201553,1,0,0:0:0:0:
42,192,201553,1,0,0:0:0:0:
469,192,201908,1,0,0:0:0:0:
42,192,202026,1,0,0:0:0:0:
384,192,202262,1,0,0:0:0:0:
298,192,202498,1,0,0:0:0:0:
42,192,202498,1,0,0:0:0:0:
213,192,202853,1,0,0:0:0:0:
42,192,202971,1,0,0:0:0:0:
384,192,203207,1,0,0:0:0:0:
42,192,203443,1,0,0:0:0:0:
298,192,203443,1,0,0:0:0:0:
213,192,203797,1,0,0:0:0:0:
42,192,203916,1,0,0:0:0:0:
128,192,204152,1,0,0:0:0:0:
213,192,204388,1,0,0:0:0:0:
42,192,204388,1,0,0:0:0:0:
469,192,204860,1,0,0:0:0:0:
42,192,204860,1,0,0:0:0:0:
384,192,205333,1,0,0:0:0:0:
42,192,205333,1,0,0:0:0:0:
298,192,205687,1,0,0:0:0:0:
42,192,205805,1,0,0:0:0:0:
128,192,206042,1,0,0:0:0:0:
42,192,206278,1,0,0:0:0:0:
213,192,206278,1,0,0:0:0:0:
298,192,206396,1,0,0:0:0:0:
213,192,206514,1,0,0:0:0:0:
42,192,206750,1,0,0:0:0:0:
42,192,207223,1,0,0:0:0:0:
128,192,207459,1,0,0:0:0:0:
213,192,207695,1,0,0:0:0:0:
42,192,207695,1,0,0:0:0:0:
298,192,207931,1,0,0:0:0:0:
213,192,208049,1,0,0:0:0:0:
384,192,208168,1,0,0:0:0:0:
42,192,208168,1,0,0:0:0:0:
469,192,208168,1,0,0:0:0:0:
128,192,208522,1,0,0:0:0:0:
42,192,208640,1,0,0:0:0:0:
384,192,208876,1,0,0:0:0:0:
213,192,209112,1,0,0:0:0:0:
42,192,209112,1,0,0:0:0:0:
469,192,209467,1,0,0:0:0:0:
42,192,209585,1,0,0:0:0:0:
384,192,209821,1,0,0:0:0:0:
298,192,210057,1,0,0:0:0:0:
42,192,210057,1,0,0:0:0:0:
213,192,210412,1,0,0:0:0:0:
42,192,210530,1,0,0:0:0:0:
384,192,210766,1,0,0:0:0:0:
42,192,211002,1,0,0:0:0:0:
298,192,211002,1,0,0:0:0:0:
213,192,211356,1,0,0:0:0:0:
42,192,211475,1,0,0:0:0:0:
128,192,211711,1,0,0:0:0:0:
213,192,211947,1,0,0:0:0:0:
42,192,211947,1,0,0:0:0:0:
469,192,211947,1,0,0:0:0:0:
469,192,212419,1,0,0:0:0:0:
42,192,212419,1,0,0:0:0:0:
384,192,212892,1,0,0:0:0:0:
42,192,212892,1,0,0:0:0:0:
469,192,212892,1,0,0:0:0:0:
298,192,213246,1,0,0:0:0:0:
42,192,213364,1,0,0:0:0:0:
128,192,213601,1,0,0:0:0:0:
213,192,213837,1,0,0:0:0:0:
298,192,213837,1,0,0:0:0:0:
213,192,214191,1,0,0:0:0:0:
298,192,214191,1,0,0:0:0:0:
213,192,214545,1,0,0:0:0:0:
298,192,214545,1,0,0:0:0:0:
469,192,214782,1,0,0:0:0:0:
213,192,214782,1,0,0:0:0:0:
469,192,214939,1,0,0:0:0:0:
213,192,214939,1,0,0:0:0:0:
213,192,215097,1,0,0:0:0:0:
469,192,215097,1,0,0:0:0:0:
128,192,215254,1,0,0:0:0:0:
384,192,215254,1,0,0:0:0:0:
42,192,215727,1,0,0:0:0:0:
469,192,215727,1,0,0:0:0:0:
213,192,215727,1,0,0:0:0:0:
